C Density=3.51 Alpha=0.5 Thickness=5670.nm
 Photon energy (eV), Efficiency
   30000.0  4.824626E-06
   29661.8  4.930720E-06
   29327.4  5.039031E-06
   28996.8  5.149602E-06
   28669.9  5.262488E-06
   28346.7  5.377718E-06
   28027.1  5.495340E-06
   27711.2  5.615405E-06
   27398.8  5.737945E-06
   27089.9  5.863022E-06
   26784.5  5.990672E-06
   26482.6  6.120926E-06
   26184.0  6.253844E-06
   25888.8  6.389478E-06
   25597.0  6.527869E-06
   25308.4  6.669060E-06
   25023.1  6.813101E-06
   24741.0  6.960044E-06
   24462.1  7.109923E-06
   24186.3  7.262799E-06
   23913.7  7.418731E-06
   23644.1  7.577764E-06
   23377.6  7.739929E-06
   23114.0  7.905282E-06
   22853.4  8.073886E-06
   22595.8  8.245779E-06
   22341.1  8.421013E-06
   22089.2  8.599633E-06
   21840.2  8.781709E-06
   21594.0  8.967279E-06
   21350.6  9.156382E-06
   21109.9  9.349074E-06
   20871.9  9.545415E-06
   20636.6  9.745449E-06
   20403.9  9.949219E-06
   20173.9  1.015674E-05
   19946.5  1.036814E-05
   19721.6  1.058342E-05
   19499.3  1.080263E-05
   19279.5  1.102581E-05
   19062.1  1.125301E-05
   18847.2  1.148428E-05
   18634.8  1.171965E-05
   18424.7  1.195918E-05
   18217.0  1.220291E-05
   18011.6  1.245085E-05
   17808.6  1.270306E-05
   17607.8  1.295957E-05
   17409.3  1.322044E-05
   17213.1  1.348566E-05
   17019.0  1.375530E-05
   16827.2  1.402937E-05
   16637.5  1.430789E-05
   16449.9  1.459091E-05
   16264.5  1.487842E-05
   16081.1  1.517045E-05
   15899.8  1.546704E-05
   15720.6  1.576817E-05
   15543.3  1.607384E-05
   15368.1  1.638411E-05
   15194.9  1.669892E-05
   15023.6  1.701831E-05
   14854.2  1.734225E-05
   14686.8  1.767077E-05
   14521.2  1.800381E-05
   14357.5  1.834135E-05
   14195.6  1.868335E-05
   14035.6  1.902983E-05
   13877.4  1.938074E-05
   13720.9  1.973598E-05
   13566.2  2.009557E-05
   13413.3  2.045944E-05
   13262.1  2.082750E-05
   13112.6  2.119968E-05
   12964.8  2.157594E-05
   12818.6  2.195615E-05
   12674.1  2.234023E-05
   12531.2  2.272807E-05
   12390.0  2.311954E-05
   12250.3  2.351458E-05
   12112.2  2.391299E-05
   11975.6  2.431466E-05
   11840.6  2.471943E-05
   11707.1  2.512714E-05
   11575.2  2.553760E-05
   11444.7  2.595060E-05
   11315.7  2.636599E-05
   11188.1  2.678351E-05
   11062.0  2.720293E-05
   10937.3  2.762407E-05
   10814.0  2.804661E-05
   10692.1  2.847030E-05
   10571.5  2.889487E-05
   10452.3  2.931999E-05
   10334.5  2.974533E-05
   10218.0  3.017058E-05
   10102.8  3.059545E-05
   9988.92  3.101944E-05
   9876.32  3.144225E-05
   9764.98  3.186347E-05
   9654.89  3.228262E-05
   9546.05  3.269932E-05
   9438.44  3.311308E-05
   9332.03  3.352345E-05
   9226.83  3.392986E-05
   9122.81  3.433182E-05
   9019.97  3.472880E-05
   8918.29  3.512021E-05
   8817.75  3.550550E-05
   8718.34  3.588407E-05
   8620.06  3.625521E-05
   8522.88  3.661838E-05
   8426.80  3.697286E-05
   8331.80  3.731792E-05
   8237.87  3.765294E-05
   8145.01  3.797713E-05
   8053.19  3.828973E-05
   7962.40  3.859002E-05
   7872.64  3.887719E-05
   7783.89  3.915039E-05
   7696.14  3.940884E-05
   7609.38  3.965169E-05
   7523.59  3.987808E-05
   7438.78  4.008715E-05
   7354.92  4.027800E-05
   7272.00  4.044973E-05
   7190.02  4.060143E-05
   7108.97  4.073222E-05
   7028.83  4.084114E-05
   6949.59  4.092727E-05
   6871.24  4.098970E-05
   6793.78  4.102749E-05
   6717.19  4.103972E-05
   6641.47  4.102548E-05
   6566.60  4.098387E-05
   6492.57  4.091396E-05
   6419.38  4.081491E-05
   6347.01  4.068586E-05
   6275.46  4.052596E-05
   6204.71  4.033443E-05
   6134.77  4.011051E-05
   6065.61  3.985344E-05
   5997.23  3.956258E-05
   5929.62  3.923725E-05
   5862.77  3.887692E-05
   5796.68  3.848104E-05
   5731.33  3.804919E-05
   5666.72  3.758098E-05
   5602.84  3.707618E-05
   5539.68  3.653454E-05
   5477.23  3.595599E-05
   5415.48  3.534043E-05
   5354.43  3.468804E-05
   5294.07  3.399907E-05
   5234.38  3.327393E-05
   5175.38  3.251305E-05
   5117.03  3.171704E-05
   5059.35  3.088670E-05
   5002.31  3.002293E-05
   4945.92  2.912692E-05
   4890.16  2.820004E-05
   4835.03  2.724363E-05
   4780.53  2.625930E-05
   4726.63  2.524896E-05
   4673.35  2.421471E-05
   4620.67  2.315870E-05
   4568.58  2.208346E-05
   4517.07  2.099166E-05
   4466.15  1.988609E-05
   4415.80  1.876996E-05
   4366.02  1.764661E-05
   4316.80  1.651952E-05
   4268.14  1.539247E-05
   4220.02  1.426944E-05
   4172.45  1.315460E-05
   4125.41  1.205223E-05
   4078.90  1.096701E-05
   4032.92  9.903644E-06
   3987.46  8.866878E-06
   3942.50  7.861726E-06
   3898.06  6.893472E-06
   3854.12  5.967401E-06
   3810.67  5.088640E-06
   3767.71  4.262653E-06
   3725.23  3.494816E-06
   3683.24  2.790429E-06
   3641.72  2.154863E-06
   3600.66  1.593278E-06
   3560.07  1.110717E-06
   3519.94  7.120038E-07
   3480.25  4.017762E-07
   3441.02  1.843449E-07
   3402.23  6.365433E-08
   3363.88  4.329102E-08
   3325.95  1.263323E-07
   3288.46  3.153564E-07
   3251.39  6.123229E-07
   3214.73  1.018540E-06
   3178.49  1.534610E-06
   3142.66  2.160415E-06
   3107.23  2.894901E-06
   3072.20  3.736141E-06
   3037.57  4.681534E-06
   3003.33  5.727021E-06
   2969.47  6.867764E-06
   2935.99  8.098080E-06
   2902.89  9.411052E-06
   2870.17  1.079839E-05
   2837.81  1.225084E-05
   2805.82  1.375867E-05
   2774.19  1.531016E-05
   2742.92  1.689292E-05
   2711.99  1.849393E-05
   2681.42  2.009882E-05
   2651.19  2.169254E-05
   2621.31  2.325971E-05
   2591.76  2.478391E-05
   2562.54  2.624861E-05
   2533.65  2.763697E-05
   2505.09  2.893223E-05
   2476.85  3.011746E-05
   2448.92  3.117643E-05
   2421.32  3.209385E-05
   2394.02  3.285476E-05
   2367.03  3.344565E-05
   2340.35  3.385449E-05
   2313.96  3.407131E-05
   2287.88  3.408763E-05
   2262.09  3.389750E-05
   2236.58  3.349761E-05
   2211.37  3.288726E-05
   2186.44  3.206889E-05
   2161.79  3.104805E-05
   2137.42  2.983348E-05
   2113.33  2.843749E-05
   2089.50  2.687580E-05
   2065.95  2.516706E-05
   2042.66  2.333405E-05
   2019.63  2.140204E-05
   1996.86  1.939878E-05
   1974.35  1.735272E-05
   1952.09  1.529744E-05
   1930.09  1.326705E-05
   1908.33  1.129581E-05
   1886.81  9.419245E-06
   1865.54  7.671567E-06
   1844.51  6.085456E-06
   1823.72  4.691855E-06
   1803.16  3.518794E-06
   1782.83  2.590127E-06
   1762.73  1.924876E-06
   1742.86  1.537039E-06
   1723.21  1.434191E-06
   1703.79  1.617290E-06
   1684.58  2.081468E-06
   1665.59  2.814110E-06
   1646.81  3.795457E-06
   1628.25  4.998480E-06
   1609.89  6.389540E-06
   1591.74  7.929122E-06
   1573.80  9.572447E-06
   1556.06  1.127081E-05
   1538.52  1.297286E-05
   1521.17  1.462641E-05
   1504.02  1.617909E-05
   1487.07  1.758245E-05
   1470.30  1.879205E-05
   1453.73  1.976800E-05
   1437.34  2.047796E-05
   1421.14  2.089851E-05
   1405.12  2.101627E-05
   1389.28  2.082890E-05
   1373.61  2.034535E-05
   1358.13  1.958599E-05
   1342.82  1.858206E-05
   1327.68  1.737465E-05
   1312.71  1.601314E-05
   1297.91  1.455331E-05
   1283.28  1.305482E-05
   1268.82  1.157882E-05
   1254.51  1.018497E-05
   1240.37  8.925497E-06
   1226.39  7.847439E-06
   1212.56  6.989022E-06
   1198.89  6.378337E-06
   1185.38  6.030556E-06
   1172.01  5.947220E-06
   1158.80  6.116360E-06
   1145.74  6.512770E-06
   1132.82  7.100074E-06
   1120.05  7.832647E-06
   1107.42  8.658236E-06
   1094.94  9.521715E-06
   1082.60  1.036854E-05
   1070.39  1.114767E-05
   1058.32  1.181519E-05
   1046.39  1.233761E-05
   1034.60  1.269367E-05
   1022.93  1.287546E-05
   1011.40  1.288384E-05
   1000.00  1.273213E-05